! N_H(cm-2)    T_gas(K)     X(H)        X(H2)       X(C)        X(CO)
 0.00000E+00 6.12631E+03 9.99982E-01 2.26452E-07 1.62612E-10 3.63657E-13
 1.71000E+19 6.10238E+03 9.99982E-01 2.34823E-07 1.67649E-10 3.87560E-13
 2.90700E+20 6.19773E+03 9.99981E-01 3.80976E-07 2.62180E-10 9.91667E-13
 4.27500E+20 6.34299E+03 9.99977E-01 6.23714E-07 3.43176E-10 2.02617E-12
 5.64300E+20 6.44210E+03 9.99974E-01 9.00086E-07 4.43140E-10 3.61166E-12
 6.32700E+20 6.54276E+03 9.99970E-01 1.20267E-06 5.18625E-10 5.33988E-12
 7.01100E+20 6.64499E+03 9.99968E-01 1.48270E-06 5.97137E-10 7.29197E-12
 7.69500E+20 6.74882E+03 9.99964E-01 1.85235E-06 6.93320E-10 1.00941E-11
 8.37900E+20 6.85427E+03 9.99960E-01 2.35493E-06 8.14254E-10 1.42203E-11
 9.06300E+20 6.96136E+03 9.99955E-01 3.05763E-06 9.70886E-10 2.04565E-11
 9.40500E+20 7.09733E+03 9.99949E-01 3.77470E-06 1.10017E-09 2.65127E-11
 9.74700E+20 7.18050E+03 9.99945E-01 4.36335E-06 1.21803E-09 3.22146E-11
 1.00890E+21 7.26465E+03 9.99940E-01 5.08135E-06 1.35778E-09 3.94207E-11
 1.04310E+21 7.34978E+03 9.99935E-01 5.96311E-06 1.52517E-09 4.85920E-11
 1.07730E+21 7.43591E+03 9.99929E-01 7.05547E-06 1.72806E-09 6.03636E-11
 1.11150E+21 7.52305E+03 9.99922E-01 8.43707E-06 1.97931E-09 7.57504E-11
 1.14570E+21 7.64060E+03 9.99914E-01 1.01441E-05 2.28664E-09 9.53762E-11
 1.17990E+21 7.73013E+03 9.99905E-01 1.24155E-05 2.68802E-09 1.22333E-10
 1.21410E+21 7.82072E+03 9.99894E-01 1.54342E-05 3.21567E-09 1.59259E-10
 1.24830E+21 7.88182E+03 9.99880E-01 1.96126E-05 3.93874E-09 2.12198E-10
 1.28250E+21 7.97419E+03 9.99863E-01 2.52051E-05 4.91004E-09 2.85143E-10
 1.31670E+21 8.03648E+03 9.99842E-01 3.29066E-05 6.25514E-09 3.89835E-10
 1.35090E+21 8.06716E+03 9.99817E-01 4.32196E-05 8.08344E-09 5.37296E-10
 1.38510E+21 8.09736E+03 9.99788E-01 5.59822E-05 1.04120E-08 7.30153E-10
 1.41930E+21 8.11223E+03 9.99757E-01 7.07673E-05 1.32153E-08 9.69443E-10
 1.45350E+21 8.10431E+03 9.99724E-01 8.68747E-05 1.64175E-08 1.25254E-09
 1.46261E+21 8.11912E+03 9.99699E-01 9.88433E-05 1.87032E-08 1.44214E-09
 1.49906E+21 8.08740E+03 9.99683E-01 1.07618E-04 2.08671E-08 1.66196E-09
 1.53551E+21 8.05581E+03 9.99651E-01 1.24071E-04 2.46806E-08 2.02798E-09
 1.60841E+21 8.02434E+03 9.99610E-01 1.46589E-04 3.08720E-08 2.67547E-09
 1.68131E+21 7.96165E+03 9.99554E-01 1.76528E-04 3.96922E-08 3.60940E-09
 1.75421E+21 7.89945E+03 9.99501E-01 2.05408E-04 4.95713E-08 4.70504E-09
 1.82711E+21 7.83774E+03 9.99446E-01 2.34578E-04 6.09951E-08 6.20805E-09
 1.97291E+21 7.68466E+03 9.99332E-01 2.95081E-04 8.88915E-08 1.03058E-08
 2.11871E+21 7.56458E+03 9.99191E-01 3.68711E-04 1.31836E-07 1.78193E-08
 2.26451E+21 7.41684E+03 9.99021E-01 4.56751E-04 1.95986E-07 3.08219E-08
 2.41031E+21 7.30095E+03 9.98823E-01 5.57535E-04 2.90135E-07 5.25466E-08
 2.55611E+21 7.12983E+03 9.98574E-01 6.83647E-04 4.35572E-07 9.16386E-08
 2.84770E+21 6.85132E+03 9.97954E-01 9.96131E-04 9.46337E-07 2.46568E-07
 2.92522E+21 6.77104E+03 9.97736E-01 1.10545E-03 1.23886E-06 4.00619E-07
 3.23531E+21 6.40074E+03 9.96672E-01 1.63834E-03 2.78883E-06 1.12847E-06
 3.39036E+21 6.05070E+03 9.95759E-01 2.09446E-03 4.55283E-06 3.05135E-06
 3.46788E+21 5.71981E+03 9.94942E-01 2.50247E-03 5.84537E-06 6.15390E-06
 3.54540E+21 5.18357E+03 9.93433E-01 3.25576E-03 7.32845E-06 1.23779E-05
 3.54570E+21 4.45463E+03 9.91059E-01 4.44225E-03 7.66856E-06 2.24738E-05
 3.55539E+21 4.31543E+03 9.90400E-01 4.77148E-03 7.87916E-06 2.40388E-05
 3.55570E+21 8.27288E+02 5.39965E-01 2.30012E-01 2.22542E-05 4.35698E-05
 3.55812E+21 8.20825E+02 5.32167E-01 2.33911E-01 2.25905E-05 4.33017E-05
 3.56296E+21 7.88762E+02 4.92417E-01 2.53787E-01 2.41449E-05 4.19607E-05
 3.56781E+21 7.51788E+02 4.42537E-01 2.78728E-01 2.57742E-05 4.08525E-05
 3.57265E+21 7.22422E+02 4.01719E-01 2.99137E-01 2.69617E-05 3.98759E-05
 3.58234E+21 6.99846E+02 3.68006E-01 3.15994E-01 2.77944E-05 3.94467E-05
 3.59203E+21 6.69774E+02 3.21641E-01 3.39177E-01 2.87073E-05 3.90064E-05
 3.60172E+21 6.48844E+02 2.87678E-01 3.56159E-01 2.92252E-05 3.89870E-05
 3.61141E+21 6.31102E+02 2.59062E-01 3.70467E-01 2.95523E-05 3.89527E-05
 3.63079E+21 6.12613E+02 2.29346E-01 3.85325E-01 2.97263E-05 3.89980E-05
 3.65017E+21 5.91076E+02 1.93543E-01 4.03227E-01 2.97420E-05 3.95925E-05
 3.72770E+21 5.61060E+02 1.44759E-01 4.27619E-01 2.89940E-05 4.12156E-05
 3.88274E+21 5.06269E+02 6.93422E-02 4.65328E-01 2.58113E-05 4.62202E-05
 4.03778E+21 4.59795E+02 2.78420E-02 4.86079E-01 2.16134E-05 5.27520E-05
 4.21281E+21 4.25670E+02 1.18879E-02 4.94056E-01 1.79045E-05 5.79994E-05
 4.38784E+21 3.98650E+02 5.30554E-03 4.97347E-01 1.50803E-05 6.23747E-05
 4.73789E+21 3.61276E+02 1.53703E-03 4.99231E-01 1.11946E-05 6.78714E-05
 4.91292E+21 3.37285E+02 6.48157E-04 4.99676E-01 1.08568E-05 6.98292E-05
 5.26297E+21 3.05006E+02 2.34763E-04 4.99883E-01 1.02708E-05 7.21922E-05
 5.40984E+21 2.84156E+02 1.37589E-04 4.99931E-01 1.17164E-05 7.22732E-05
 5.63015E+21 2.59736E+02 8.33641E-05 4.99958E-01 1.18672E-05 7.37464E-05
 5.85045E+21 2.35386E+02 5.23953E-05 4.99974E-01 1.18777E-05 7.52587E-05
 6.07075E+21 2.16997E+02 3.60512E-05 4.99982E-01 1.20145E-05 7.61246E-05
 6.29106E+21 2.03434E+02 2.71278E-05 4.99986E-01 1.27396E-05 7.59959E-05
 6.51136E+21 1.90720E+02 2.19458E-05 4.99989E-01 1.41367E-05 7.49534E-05
 6.71179E+21 1.79545E+02 1.89339E-05 4.99991E-01 1.60781E-05 7.32248E-05
 7.01242E+21 1.64115E+02 1.61847E-05 4.99992E-01 1.87316E-05 7.07707E-05
 7.31306E+21 1.48729E+02 1.43950E-05 4.99993E-01 2.22433E-05 6.74025E-05
 7.61370E+21 1.34786E+02 1.32262E-05 4.99993E-01 2.49534E-05 6.47947E-05
 7.90419E+21 1.23203E+02 1.24721E-05 4.99994E-01 2.59210E-05 6.38980E-05
 8.12206E+21 1.15021E+02 1.20807E-05 4.99994E-01 2.54107E-05 6.44479E-05
 8.44887E+21 1.04238E+02 1.17272E-05 4.99994E-01 2.21242E-05 6.77722E-05
 8.61227E+21 9.93519E+01 1.16084E-05 4.99994E-01 2.01853E-05 6.97263E-05
 8.77567E+21 9.19781E+01 1.16037E-05 4.99994E-01 1.77824E-05 7.21406E-05
 8.93908E+21 8.65888E+01 1.16034E-05 4.99994E-01 1.53954E-05 7.45369E-05
 9.10248E+21 8.11770E+01 1.16497E-05 4.99994E-01 1.30680E-05 7.68720E-05
 9.26588E+21 7.61034E+01 1.17306E-05 4.99994E-01 1.08959E-05 7.90506E-05
 9.42929E+21 7.13469E+01 1.18436E-05 4.99994E-01 8.93755E-06 8.10144E-05
 9.59269E+21 6.68878E+01 1.19857E-05 4.99994E-01 7.22694E-06 8.27296E-05
 9.75409E+21 6.32298E+01 1.21261E-05 4.99994E-01 5.80356E-06 8.41568E-05
 9.99619E+21 5.85370E+01 1.23448E-05 4.99994E-01 4.11960E-06 8.58455E-05
 1.02383E+22 5.45354E+01 1.25679E-05 4.99994E-01 2.89481E-06 8.70743E-05
 1.04804E+22 5.14465E+01 1.27626E-05 4.99994E-01 2.02746E-06 8.79450E-05
 1.09646E+22 4.67239E+01 1.31124E-05 4.99993E-01 9.87434E-07 8.89906E-05
 1.17009E+22 4.23435E+01 1.35195E-05 4.99993E-01 3.29877E-07 8.96548E-05
 1.24322E+22 3.95316E+01 1.38252E-05 4.99993E-01 1.14571E-07 8.98746E-05
 1.27979E+22 3.56711E+01 1.43449E-05 4.99992E-01 6.62840E-08 8.99247E-05
 1.31635E+22 3.23270E+01 1.48645E-05 4.99992E-01 3.91553E-08 8.99532E-05
 1.35292E+22 2.97383E+01 1.53063E-05 4.99991E-01 2.37777E-08 8.99696E-05
 1.40776E+22 2.67761E+01 1.58229E-05 4.99991E-01 1.17930E-08 8.99826E-05
 1.46261E+22 2.47888E+01 1.61530E-05 4.99990E-01 6.20612E-09 8.99887E-05
 1.57231E+22 2.27553E+01 1.61206E-05 4.99989E-01 2.27873E-09 8.99924E-05
 1.75513E+22 2.15109E+01 1.50301E-05 4.99990E-01 1.28036E-09 8.99910E-05
 2.04766E+22 2.07757E+01 1.46398E-05 4.99991E-01 1.18855E-09 8.99896E-05
 2.34018E+22 2.02482E+01 1.47270E-05 4.99991E-01 1.17049E-09 8.99896E-05
 2.63270E+22 1.97340E+01 1.48320E-05 4.99991E-01 1.15634E-09 8.99896E-05
 2.92522E+22 1.91752E+01 1.49614E-05 4.99991E-01 1.14140E-09 8.99897E-05
 3.21775E+22 1.86883E+01 1.50935E-05 4.99991E-01 1.12723E-09 8.99898E-05
 3.51027E+22 1.82138E+01 1.52266E-05 4.99991E-01 1.11380E-09 8.99899E-05
 3.80279E+22 1.77869E+01 1.53395E-05 4.99991E-01 1.10260E-09 8.99900E-05
