#Jup Flux
   1    4.022e-12
   2    1.122e-10
   3    7.457e-10
   4    2.760e-09
   5    7.400e-09
   6    1.613e-08
   7    3.044e-08
   8    5.170e-08
   9    8.110e-08
  10    1.194e-07
  11    1.672e-07
  12    2.244e-07
  13    2.912e-07
  14    3.668e-07
  15    4.515e-07
  16    5.423e-07
  17    5.012e-07
  18    5.424e-07
  19    5.760e-07
  20    5.997e-07
  21    6.113e-07
  22    6.111e-07
  23    5.999e-07
  24    5.788e-07
  25    5.495e-07
  26    5.131e-07
  27    4.723e-07
  28    4.285e-07
  29    3.835e-07
  30    3.388e-07
  31    2.957e-07
  32    2.552e-07
  33    2.179e-07
  34    1.843e-07
  35    1.543e-07
  36    1.281e-07
  37    1.054e-07
  38    8.590e-08
  39    6.933e-08
  40    5.551e-08
  41    4.378e-08
  42    3.523e-08
  43    2.832e-08
  44    2.274e-08
  45    1.825e-08
  46    1.465e-08
  47    1.177e-08
  48    9.465e-09
  49    7.629e-09
  50    6.166e-09
  51    5.003e-09
  52    4.077e-09
  53    3.340e-09
  54    2.752e-09
  55    2.285e-09
  56    1.911e-09
  57    1.612e-09
  58    1.371e-09
  59    1.177e-09
  60    1.020e-09
  61    8.920e-10
  62    7.864e-10
  63    6.988e-10
  64    6.258e-10
  65    5.641e-10
  66    5.112e-10
  67    4.655e-10
  68    4.253e-10
  69    3.895e-10
  70    3.570e-10
  71    3.270e-10
  72    2.989e-10
  73    2.717e-10
  74    2.451e-10
  75    2.183e-10
  76    1.907e-10
  77    1.613e-10
  78    1.292e-10
  79    9.298e-11
  80    5.044e-11
