#Jup Flux
   1    2.997e-12
   2    7.140e-11
   3    4.037e-10
   4    1.257e-09
   5    2.707e-09
   6    4.409e-09
   7    5.684e-09
   8    5.979e-09
   9    5.275e-09
  10    4.079e-09
  11    2.919e-09
  12    2.027e-09
  13    1.384e-09
  14    9.395e-10
  15    6.215e-10
  16    4.452e-10
  17    3.243e-10
  18    2.409e-10
  19    1.824e-10
  20    1.404e-10
  21    1.086e-10
  22    8.497e-11
  23    6.699e-11
  24    5.319e-11
  25    4.250e-11
  26    3.412e-11
  27    2.749e-11
  28    2.220e-11
  29    1.799e-11
  30    1.457e-11
  31    1.183e-11
  32    9.598e-12
  33    7.793e-12
  34    6.325e-12
  35    5.130e-12
  36    4.156e-12
  37    3.362e-12
  38    2.718e-12
  39    2.197e-12
  40    1.772e-12
  41    1.426e-12
  42    1.156e-12
  43    9.373e-13
  44    7.600e-13
  45    6.159e-13
  46    4.994e-13
  47    4.050e-13
  48    3.284e-13
  49    2.663e-13
  50    2.158e-13
  51    1.750e-13
  52    1.419e-13
  53    1.151e-13
  54    9.335e-14
  55    7.574e-14
  56    6.149e-14
  57    4.991e-14
  58    4.050e-14
  59    3.289e-14
  60    2.671e-14
  61    2.170e-14
  62    1.763e-14
  63    1.434e-14
  64    1.166e-14
  65    9.484e-15
  66    7.709e-15
  67    6.271e-15
  68    5.098e-15
  69    4.139e-15
  70    3.358e-15
  71    2.718e-15
  72    2.192e-15
  73    1.759e-15
  74    1.400e-15
  75    1.101e-15
  76    8.493e-16
  77    6.351e-16
  78    4.497e-16
  79    2.864e-16
  80    1.384e-16