#Jup Flux
   1    8.640e-10
   2    1.430e-08
   3    7.020e-08
   4    2.129e-07
   5    4.983e-07
   6    9.895e-07
   7    1.750e-06
   8    2.821e-06
   9    4.211e-06
  10    5.917e-06
  11    7.944e-06
  12    1.029e-05
  13    1.294e-05
  14    1.584e-05
  15    1.882e-05
  16    2.174e-05
  17    2.418e-05
  18    2.648e-05
  19    2.830e-05
  20    2.954e-05
  21    3.004e-05
  22    2.983e-05
  23    2.897e-05
  24    2.758e-05
  25    2.580e-05
  26    2.374e-05
  27    2.155e-05
  28    1.931e-05
  29    1.712e-05
  30    1.503e-05
  31    1.311e-05
  32    1.134e-05
  33    9.757e-06
  34    8.353e-06
  35    7.113e-06
  36    6.031e-06
  37    5.086e-06
  38    4.273e-06
  39    3.568e-06
  40    2.964e-06
  41    2.442e-06
  42    2.056e-06
  43    1.732e-06
  44    1.458e-06
  45    1.227e-06
  46    1.033e-06
  47    8.690e-07
  48    7.312e-07
  49    6.149e-07
  50    5.170e-07
  51    4.347e-07
  52    3.653e-07
  53    3.070e-07
  54    2.582e-07
  55    2.170e-07
  56    1.824e-07
  57    1.533e-07
  58    1.289e-07
  59    1.084e-07
  60    9.120e-08
  61    7.674e-08
  62    6.454e-08
  63    5.431e-08
  64    4.573e-08
  65    3.851e-08
  66    3.242e-08
  67    2.729e-08
  68    2.296e-08
  69    1.929e-08
  70    1.619e-08
  71    1.355e-08
  72    1.130e-08
  73    9.378e-09
  74    7.713e-09
  75    6.265e-09
  76    4.993e-09
  77    3.856e-09
  78    2.821e-09
  79    1.856e-09
  80    9.251e-10