#Jup Flux
   1    8.277e-10
   2    1.505e-08
   3    8.080e-08
   4    2.625e-07
   5    6.452e-07
   6    1.324e-06
   7    2.385e-06
   8    3.885e-06
   9    5.824e-06
  10    8.131e-06
  11    1.067e-05
  12    1.321e-05
  13    1.545e-05
  14    1.708e-05
  15    1.765e-05
  16    1.742e-05
  17    1.624e-05
  18    1.430e-05
  19    1.193e-05
  20    9.511e-06
  21    7.315e-06
  22    5.502e-06
  23    4.077e-06
  24    2.987e-06
  25    2.166e-06
  26    1.555e-06
  27    1.106e-06
  28    7.794e-07
  29    5.456e-07
  30    3.777e-07
  31    2.594e-07
  32    1.766e-07
  33    1.192e-07
  34    7.974e-08
  35    5.287e-08
  36    3.469e-08
  37    2.249e-08
  38    1.439e-08
  39    9.033e-09
  40    5.523e-09
  41    3.215e-09
  42    2.019e-09
  43    1.259e-09
  44    7.807e-10
  45    4.806e-10
  46    2.941e-10
  47    1.786e-10
  48    1.078e-10
  49    6.468e-11
  50    3.853e-11
  51    2.282e-11
  52    1.343e-11
  53    7.854e-12
  54    4.568e-12
  55    2.640e-12
  56    1.518e-12
  57    8.679e-13
  58    4.933e-13
  59    2.790e-13
  60    1.570e-13
  61    8.791e-14
  62    4.897e-14
  63    2.714e-14
  64    1.498e-14
  65    8.236e-15
  66    4.507e-15
  67    2.457e-15
  68    1.334e-15
  69    7.221e-16
  70    3.892e-16
  71    2.091e-16
  72    1.121e-16
  73    5.989e-17
  74    3.192e-17
  75    1.678e-17
  76    8.849e-18
  77    4.565e-18
  78    2.308e-18
  79    1.020e-18
  80    2.937e-19